t12[ms]	AFFT
2.0	0.06412
2.5	0.06600
4.0	0.06245
6.0	0.05773
9.0	0.05063
14.0	0.03966
20.0	0.02753
30.0	0.01017
40.0	0.00440
50.0	0.01589
60.0	0.02605
70.0	0.03394
80.0	0.04044
90.0	0.04472
100.0	0.04848
120.0	0.05459
150.0	0.06116
200.0	0.06601
300.0	0.06997
400.0	0.07173