t12[ms]	AFFT (T0=2s, posledne 3 na 4s)
2.0	0.09838
5.0	0.09051
10.0	0.08605
20.0	0.07806
30.0	0.06882
40.0	0.06348
50.0	0.05693
70.0	0.04566
90.0	0.03442
120.0	0.01804
150.0	0.00119
200.0	0.01663
250.0	0.03389
300.0	0.04780
400.0	0.06970
500.0	0.08432
600.0	0.09398
700.0	0.10070
