t12[ms]	AFFT
1.0	0.07280
2.0	0.06951
4.0	0.06778
10.0	0.05795
15.0	0.04946
18.0	0.04351
22.0	0.03665
26.0	0.02977
30.0	0.02397
35.0	0.01765
40.0	0.01339
45.0	0.00944
50.0	0.00619
60.0	0.00295
70.0	0.00125
