20.006565140 3844.0
20.019695423 3873.0
20.032825705 3803.0
20.045955988 3803.0
20.059086271 3902.0
20.072216553 3780.0
20.085346836 3798.0
20.098477119 3951.0
20.111607401 3977.0
20.124737684 3918.0
20.137867967 3781.0
20.150998249 3803.0
20.164128532 3894.0
20.177258815 3789.0
20.190389097 3853.0
20.203519380 3835.0
20.216649663 3814.0
20.229779946 3828.0
20.242910228 3910.0
20.256040511 3825.0
20.269170794 3928.0
20.282301076 3866.0
20.295431359 3821.0
20.308561642 3874.0
20.321691924 3805.0
20.334822207 3845.0
20.347952490 3784.0
20.361082772 3861.0
20.374213055 3981.0
20.387343338 3840.0
20.400473620 3965.0
20.413603903 3847.0
20.426734186 3738.0
20.439864468 3778.0
20.452994751 3921.0
20.466125034 3938.0
20.479255316 3778.0
20.492385599 3846.0
20.505515882 3837.0
20.518646164 3662.0
20.531776447 3728.0
20.544906730 3848.0
20.558037012 3683.0
20.571167295 3815.0
20.584297578 3764.0
20.597427861 3790.0
20.610558143 3843.0
20.623688426 3835.0
20.636818709 3799.0
20.649948991 3881.0
20.663079274 3771.0
20.676209557 3865.0
20.689339839 3918.0
20.702470122 3934.0
20.715600405 3833.0
20.728730687 3722.0
20.741860970 3806.0
20.754991253 3810.0
20.768121535 3849.0
20.781251818 3771.0
20.794382101 3572.0
20.807512383 3816.0
20.820642666 3669.0
20.833772949 3746.0
20.846903231 3757.0
20.860033514 3742.0
20.873163797 3654.0
20.886294079 3736.0
20.899424362 3779.0
20.912554645 3719.0
20.925684927 3716.0
20.938815210 3715.0
20.951945493 3689.0
20.965075775 3712.0
20.978206058 3686.0
20.991336341 3625.0
21.004466624 3776.0
21.017596906 3757.0
21.030727189 3780.0
21.043857472 3785.0
21.056987754 3637.0
21.070118037 3673.0
21.083248320 3618.0
21.096378602 3754.0
21.109508885 3731.0
21.122639168 3900.0
21.135769450 3767.0
21.148899733 3728.0
21.162030016 3843.0
21.175160298 3714.0
21.188290581 3756.0
21.201420864 3622.0
21.214551146 3687.0
21.227681429 3685.0
21.240811712 3610.0
21.253941994 3758.0
21.267072277 3708.0
21.280202560 3814.0
21.293332842 3745.0
21.306463125 3718.0
21.319593408 3714.0
21.332723690 3694.0
21.345853973 3661.0
21.358984256 3646.0
21.372114538 3595.0
21.385244821 3497.0
21.398375104 3639.0
21.411505387 3668.0
21.424635669 3841.0
21.437765952 3757.0
21.450896235 3778.0
21.464026517 3759.0
21.477156800 3656.0
21.490287083 3705.0
21.503417365 3762.0
21.516547648 3610.0
21.529677931 3573.0
21.542808213 3776.0
21.555938496 3705.0
21.569068779 3710.0
21.582199061 3754.0
21.595329344 3842.0
21.608459627 3811.0
21.621589909 3656.0
21.634720192 3629.0
21.647850475 3635.0
21.660980757 3601.0
21.674111040 3646.0
21.687241323 3619.0
21.700371605 3738.0
21.713501888 3711.0
21.726632171 3678.0
21.739762453 3658.0
21.752892736 3629.0
21.766023019 3671.0
21.779153302 3650.0
21.792283584 3545.0
21.805413867 3624.0
21.818544150 3560.0
21.831674432 3594.0
21.844804715 3684.0
21.857934998 3607.0
21.871065280 3649.0
21.884195563 3659.0
21.897325846 3598.0
21.910456128 3607.0
21.923586411 3555.0
21.936716694 3636.0
21.949846976 3567.0
21.962977259 3689.0
21.976107542 3670.0
21.989237824 3722.0
22.002368107 3591.0
22.015498390 3700.0
22.028628672 3623.0
22.041758955 3559.0
22.054889238 3608.0
22.068019520 3613.0
22.081149803 3486.0
22.094280086 3617.0
22.107410368 3527.0
22.120540651 3565.0
22.133670934 3616.0
22.146801216 3544.0
22.159931499 3478.0
22.173061782 3471.0
22.186192065 3489.0
22.199322347 3472.0
22.212452630 3601.0
22.225582913 3619.0
22.238713195 3619.0
22.251843478 3527.0
22.264973761 3643.0
22.278104043 3516.0
22.291234326 3538.0
22.304364609 3616.0
22.317494891 3592.0
22.330625174 3581.0
22.343755457 3593.0
22.356885739 3596.0
22.370016022 3515.0
22.383146305 3520.0
22.396276587 3553.0
22.409406870 3705.0
22.422537153 3631.0
22.435667435 3550.0
22.448797718 3694.0
22.461928001 3610.0
22.475058283 3507.0
22.488188566 3418.0
22.501318849 3579.0
22.514449131 3564.0
22.527579414 3573.0
22.540709697 3601.0
22.553839980 3581.0
22.566970262 3531.0
22.580100545 3611.0
22.593230828 3590.0
22.606361110 3509.0
22.619491393 3395.0
22.632621676 3536.0
22.645751958 3499.0
22.658882241 3417.0
22.672012524 3534.0
22.685142806 3513.0
22.698273089 3498.0
22.711403372 3330.0
22.724533654 3531.0
22.737663937 3538.0
22.750794220 3435.0
22.763924502 3479.0
22.777054785 3448.0
22.790185068 3612.0
22.803315350 3456.0
22.816445633 3437.0
22.829575916 3502.0
22.842706198 3516.0
22.855836481 3494.0
22.868966764 3464.0
22.882097046 3553.0
22.895227329 3355.0
22.908357612 3516.0
22.921487894 3459.0
22.934618177 3561.0
22.947748460 3436.0
22.960878743 3467.0
22.974009025 3432.0
22.987139308 3415.0
23.000269591 3612.0
23.013399873 3519.0
23.026530156 3367.0
23.039660439 3450.0
23.052790721 3346.0
23.065921004 3471.0
23.079051287 3347.0
23.092181569 3424.0
23.105311852 3597.0
23.118442135 3433.0
23.131572417 3398.0
23.144702700 3515.0
23.157832983 3493.0
23.170963265 3466.0
23.184093548 3427.0
23.197223831 3472.0
23.210354113 3450.0
23.223484396 3543.0
23.236614679 3452.0
23.249744961 3377.0
23.262875244 3464.0
23.276005527 3413.0
23.289135809 3458.0
23.302266092 3560.0
23.315396375 3476.0
23.328526658 3392.0
23.341656940 3321.0
23.354787223 3510.0
23.367917506 3434.0
23.381047788 3398.0
23.394178071 3379.0
23.407308354 3305.0
23.420438636 3392.0
23.433568919 3445.0
23.446699202 3383.0
23.459829484 3459.0
23.472959767 3352.0
23.486090050 3396.0
23.499220332 3281.0
23.512350615 3364.0
23.525480898 3462.0
23.538611180 3498.0
23.551741463 3304.0
23.564871746 3355.0
23.578002028 3363.0
23.591132311 3431.0
23.604262594 3444.0
23.617392876 3373.0
23.630523159 3325.0
23.643653442 3307.0
23.656783724 3368.0
23.669914007 3310.0
23.683044290 3318.0
23.696174572 3296.0
23.709304855 3428.0
23.722435138 3413.0
23.735565421 3398.0
23.748695703 3414.0
23.761825986 3405.0
23.774956269 3390.0
23.788086551 3375.0
23.801216834 3331.0
23.814347117 3423.0
23.827477399 3318.0
23.840607682 3466.0
23.853737965 3369.0
23.866868247 3402.0
23.879998530 3290.0
23.893128813 3262.0
23.906259095 3273.0
23.919389378 3298.0
23.932519661 3332.0
23.945649943 3292.0
23.958780226 3397.0
23.971910509 3379.0
23.985040791 3325.0
23.998171074 3325.0
24.011301357 3146.0
24.024431639 3126.0
24.037561922 3324.0
24.050692205 3335.0
24.063822487 3324.0
24.076952770 3239.0
24.090083053 3326.0
24.103213335 3342.0
24.116343618 3352.0
24.129473901 3387.0
24.142604184 3343.0
24.155734466 3299.0
24.168864749 3366.0
24.181995032 3263.0
24.195125314 3313.0
24.208255597 3365.0
24.221385880 3336.0
24.234516162 3242.0
24.247646445 3259.0
24.260776728 3290.0
24.273907010 3461.0
24.287037293 3496.0
24.300167576 3239.0
24.313297858 3326.0
24.326428141 3310.0
24.339558424 3296.0
24.352688706 3294.0
24.365818989 3316.0
24.378949272 3333.0
24.392079554 3431.0
24.405209837 3287.0
24.418340120 3285.0
24.431470402 3402.0
24.444600685 3286.0
24.457730968 3177.0
24.470861250 3336.0
24.483991533 3262.0
24.497121816 3294.0
24.510252099 3306.0
24.523382381 3288.0
24.536512664 3426.0
24.549642947 3295.0
24.562773229 3293.0
24.575903512 3252.0
24.589033795 3338.0
24.602164077 3265.0
24.615294360 3279.0
24.628424643 3363.0
24.641554925 3307.0
24.654685208 3399.0
24.667815491 3352.0
24.680945773 3344.0
24.694076056 3304.0
24.707206339 3116.0
24.720336621 3297.0
24.733466904 3396.0
24.746597187 3319.0
24.759727469 3282.0
24.772857752 3237.0
24.785988035 3202.0
24.799118317 3218.0
24.812248600 3242.0
24.825378883 3344.0
24.838509165 3319.0
24.851639448 3253.0
24.864769731 3244.0
24.877900013 3224.0
24.891030296 3246.0
24.904160579 3185.0
24.917290862 3239.0
24.930421144 3279.0
24.943551427 3317.0
24.956681710 3363.0
24.969811992 3261.0
24.982942275 3213.0
24.996072558 3265.0
25.009202840 3208.0
25.022333123 3330.0
25.035463406 3269.0
25.048593688 3278.0
25.061723971 3303.0
25.074854254 3247.0
25.087984536 3107.0
25.101114819 3252.0
25.114245102 3295.0
25.127375384 3209.0
25.140505667 3238.0
25.153635950 3268.0
25.166766232 3150.0
25.179896515 3179.0
25.193026798 3227.0
25.206157080 3287.0
25.219287363 3224.0
25.232417646 3234.0
25.245547928 3207.0
25.258678211 3206.0
25.271808494 3261.0
25.284938777 3209.0
25.298069059 3073.0
25.311199342 3184.0
25.324329625 3221.0
25.337459907 3154.0
25.350590190 3227.0
25.363720473 3217.0
25.376850755 3201.0
25.389981038 3117.0
25.403111321 3237.0
25.416241603 3222.0
25.429371886 3184.0
25.442502169 3205.0
25.455632451 3189.0
25.468762734 3197.0
25.481893017 3195.0
25.495023299 3181.0
25.508153582 3252.0
25.521283865 3157.0
25.534414147 3255.0
25.547544430 3211.0
25.560674713 3283.0
25.573804995 3235.0
25.586935278 3123.0
25.600065561 3212.0
25.613195843 3142.0
25.626326126 3223.0
25.639456409 3093.0
25.652586691 3157.0
25.665716974 3199.0
25.678847257 3297.0
25.691977540 3174.0
25.705107822 3120.0
25.718238105 3022.0
25.731368388 3239.0
25.744498670 3204.0
25.757628953 3119.0
25.770759236 3202.0
25.783889518 3240.0
25.797019801 3042.0
25.810150084 3182.0
25.823280366 3131.0
25.836410649 3140.0
25.849540932 3235.0
25.862671214 3114.0
25.875801497 3120.0
25.888931780 3341.0
25.902062062 3273.0
25.915192345 3102.0
25.928322628 3243.0
25.941452910 3223.0
25.954583193 3163.0
25.967713476 3105.0
25.980843758 3084.0
25.993974041 3036.0
26.007104324 3088.0
26.020234606 3166.0
26.033364889 3211.0
26.046495172 3106.0
26.059625454 3103.0
26.072755737 3159.0
26.085886020 3028.0
26.099016303 3106.0
26.112146585 3207.0
26.125276868 3118.0
26.138407151 3154.0
26.151537433 3243.0
26.164667716 3097.0
26.177797999 3242.0
26.190928281 3174.0
26.204058564 3154.0
26.217188847 3131.0
26.230319129 3227.0
26.243449412 3184.0
26.256579695 3167.0
26.269709977 3136.0
26.282840260 3178.0
26.295970543 3192.0
26.309100825 3158.0
26.322231108 3099.0
26.335361391 3088.0
26.348491673 3258.0
26.361621956 3124.0
26.374752239 3089.0
26.387882521 3108.0
26.401012804 3180.0
26.414143087 3118.0
26.427273369 3250.0
26.440403652 3105.0
26.453533935 3135.0
26.466664218 3123.0
26.479794500 3113.0
26.492924783 3202.0
26.506055066 3123.0
26.519185348 3199.0
26.532315631 3113.0
26.545445914 3240.0
26.558576196 3130.0
26.571706479 3130.0
26.584836762 3175.0
26.597967044 3067.0
26.611097327 3260.0
26.624227610 3124.0
26.637357892 3036.0
26.650488175 3098.0
26.663618458 3111.0
26.676748740 3241.0
26.689879023 3188.0
26.703009306 3144.0
26.716139588 3068.0
26.729269871 3144.0
26.742400154 3132.0
26.755530436 3071.0
26.768660719 3158.0
26.781791002 3181.0
26.794921284 3079.0
26.808051567 3061.0
26.821181850 3086.0
26.834312132 3014.0
26.847442415 3028.0
26.860572698 3121.0
26.873702981 3061.0
26.886833263 3134.0
26.899963546 3119.0
26.913093829 3080.0
26.926224111 3052.0
26.939354394 3076.0
26.952484677 3182.0
26.965614959 3190.0
26.978745242 3066.0
26.991875525 2942.0
27.005005807 3142.0
27.018136090 3205.0
27.031266373 3158.0
27.044396655 3267.0
27.057526938 3139.0
27.070657221 3129.0
27.083787503 3163.0
27.096917786 3358.0
27.110048069 3126.0
27.123178351 3222.0
27.136308634 3172.0
27.149438917 3253.0
27.162569199 3228.0
27.175699482 3164.0
27.188829765 3286.0
27.201960047 3382.0
27.215090330 3298.0
27.228220613 3261.0
27.241350896 3265.0
27.254481178 3314.0
27.267611461 3295.0
27.280741744 3100.0
27.293872026 3202.0
27.307002309 3124.0
27.320132592 3077.0
27.333262874 3075.0
27.346393157 3132.0
27.359523440 3091.0
27.372653722 3037.0
27.385784005 3076.0
27.398914288 3030.0
27.412044570 3076.0
27.425174853 3006.0
27.438305136 2966.0
27.451435418 3013.0
27.464565701 2943.0
27.477695984 3007.0
27.490826266 3017.0
27.503956549 3055.0
27.517086832 2976.0
27.530217114 2999.0
27.543347397 3086.0
27.556477680 3008.0
27.569607962 3029.0
27.582738245 2993.0
27.595868528 3075.0
27.608998810 2963.0
27.622129093 3005.0
27.635259376 3026.0
27.648389659 2946.0
27.661519941 2976.0
27.674650224 3019.0
27.687780507 2902.0
27.700910789 3000.0
27.714041072 2972.0
27.727171355 3040.0
27.740301637 3073.0
27.753431920 2947.0
27.766562203 2939.0
27.779692485 2940.0
27.792822768 3075.0
27.805953051 3071.0
27.819083333 3029.0
27.832213616 3039.0
27.845343899 2914.0
27.858474181 2978.0
27.871604464 2911.0
27.884734747 2901.0
27.897865029 2905.0
27.910995312 3016.0
27.924125595 3114.0
27.937255877 2893.0
27.950386160 2910.0
27.963516443 2971.0
27.976646725 3014.0
27.989777008 2891.0
28.002907291 2976.0
28.016037574 2926.0
28.029167856 2986.0
28.042298139 2954.0
28.055428422 3062.0
28.068558704 2972.0
28.081688987 3075.0
28.094819270 3042.0
28.107949552 2917.0
28.121079835 2893.0
28.134210118 2917.0
28.147340400 3015.0
28.160470683 3002.0
28.173600966 3064.0
28.186731248 2975.0
28.199861531 2839.0
28.212991814 2935.0
28.226122096 2886.0
28.239252379 2971.0
28.252382662 3039.0
28.265512944 2953.0
28.278643227 2947.0
28.291773510 2965.0
28.304903792 2990.0
28.318034075 2989.0
28.331164358 2870.0
28.344294640 2988.0
28.357424923 3004.0
28.370555206 2988.0
28.383685488 2938.0
28.396815771 2911.0
28.409946054 3028.0
28.423076337 2994.0
28.436206619 3011.0
28.449336902 2910.0
28.462467185 2865.0
28.475597467 2926.0
28.488727750 2977.0
28.501858033 2871.0
28.514988315 2856.0
28.528118598 2972.0
28.541248881 2984.0
28.554379163 2913.0
28.567509446 2879.0
28.580639729 2895.0
28.593770011 2889.0
28.606900294 2903.0
28.620030577 2904.0
28.633160859 2947.0
28.646291142 2962.0
28.659421425 2876.0
28.672551707 2926.0
28.685681990 2901.0
28.698812273 2876.0
28.711942555 2925.0
28.725072838 3036.0
28.738203121 2932.0
28.751333403 2976.0
28.764463686 2845.0
28.777593969 3034.0
28.790724251 2887.0
28.803854534 2997.0
28.816984817 2889.0
28.830115100 2884.0
28.843245382 2921.0
28.856375665 2808.0
28.869505948 2928.0
28.882636230 2938.0
28.895766513 2802.0
28.908896796 2908.0
28.922027078 2824.0
28.935157361 2915.0
28.948287644 2954.0
28.961417926 2888.0
28.974548209 2936.0
28.987678492 2822.0
29.000808774 2745.0
29.013939057 2861.0
29.027069340 2816.0
29.040199622 2920.0
29.053329905 2969.0
29.066460188 2871.0
29.079590470 2749.0
29.092720753 2825.0
29.105851036 2871.0
29.118981318 2895.0
29.132111601 2976.0
29.145241884 2909.0
29.158372166 2962.0
29.171502449 2900.0
29.184632732 2796.0
29.197763015 2855.0
29.210893297 2840.0
29.224023580 2749.0
29.237153863 2950.0
29.250284145 2790.0
29.263414428 2912.0
29.276544711 2816.0
29.289674993 2793.0
29.302805276 2873.0
29.315935559 2906.0
29.329065841 2973.0
29.342196124 2860.0
29.355326407 2839.0
29.368456689 2905.0
29.381586972 2975.0
29.394717255 2903.0
29.407847537 2938.0
29.420977820 2838.0
29.434108103 2860.0
29.447238385 2933.0
29.460368668 2921.0
29.473498951 2887.0
29.486629233 2823.0
29.499759516 2907.0
29.512889799 2742.0
29.526020081 2862.0
29.539150364 2938.0
29.552280647 2939.0
29.565410929 2830.0
29.578541212 2735.0
29.591671495 2886.0
29.604801778 2729.0
29.617932060 2864.0
29.631062343 2791.0
29.644192626 2941.0
29.657322908 2895.0
29.670453191 2741.0
29.683583474 2670.0
29.696713756 2895.0
29.709844039 2720.0
29.722974322 2833.0
29.736104604 2894.0
29.749234887 2830.0
29.762365170 2826.0
29.775495452 2773.0
29.788625735 2760.0
29.801756018 2897.0
29.814886300 2846.0
29.828016583 2846.0
29.841146866 2815.0
29.854277148 2809.0
29.867407431 2765.0
29.880537714 2807.0
29.893667996 2770.0
29.906798279 2828.0
29.919928562 2804.0
29.933058844 2779.0
29.946189127 2858.0
29.959319410 2789.0
29.972449693 2832.0
29.985579975 2853.0
29.998710258 2933.0
30.011840541 2829.0
30.024970823 2878.0
30.038101106 2815.0
30.051231389 2800.0
30.064361671 2794.0
30.077491954 2848.0
30.090622237 2818.0
30.103752519 2759.0
30.116882802 2762.0
30.130013085 2773.0
30.143143367 2834.0
30.156273650 2751.0
30.169403933 2785.0
30.182534215 2878.0
30.195664498 2833.0
30.208794781 2938.0
30.221925063 2772.0
30.235055346 2733.0
30.248185629 2884.0
30.261315911 2822.0
30.274446194 2819.0
30.287576477 2819.0
30.300706759 2891.0
30.313837042 2817.0
30.326967325 2856.0
30.340097607 2812.0
30.353227890 2909.0
30.366358173 2986.0
30.379488456 2796.0
30.392618738 2794.0
30.405749021 2827.0
30.418879304 2866.0
30.432009586 2827.0
30.445139869 2917.0
30.458270152 2894.0
30.471400434 2908.0
30.484530717 2755.0
30.497661000 2949.0
30.510791282 2863.0
30.523921565 2906.0
30.537051848 2919.0
30.550182130 2958.0
30.563312413 2876.0
30.576442696 2926.0
30.589572978 2814.0
30.602703261 2891.0
30.615833544 2691.0
30.628963826 2840.0
30.642094109 3003.0
30.655224392 2852.0
30.668354674 2788.0
30.681484957 2910.0
30.694615240 2892.0
30.707745522 2900.0
30.720875805 2889.0
30.734006088 2926.0
30.747136371 2880.0
30.760266653 2821.0
30.773396936 2923.0
30.786527219 2741.0
30.799657501 2947.0
30.812787784 2890.0
30.825918067 2986.0
30.839048349 2977.0
30.852178632 2980.0
30.865308915 3081.0
30.878439197 2947.0
30.891569480 3020.0
30.904699763 2981.0
30.917830045 3176.0
30.930960328 3056.0
30.944090611 3098.0
30.957220893 3243.0
30.970351176 3153.0
30.983481459 3196.0
30.996611741 3098.0
31.009742024 3192.0
31.022872307 3059.0
31.036002589 2912.0
31.049132872 2790.0
31.062263155 2810.0
31.075393437 2920.0
31.088523720 2867.0
31.101654003 2714.0
31.114784285 2883.0
31.127914568 2823.0
31.141044851 2781.0
31.154175134 2706.0
31.167305416 2818.0
31.180435699 2639.0
31.193565982 2766.0
31.206696264 2763.0
31.219826547 2811.0
31.232956830 2830.0
31.246087112 2799.0
31.259217395 2679.0
31.272347678 2787.0
31.285477960 2840.0
31.298608243 2772.0
31.311738526 2903.0
31.324868808 2969.0
31.337999091 2947.0
31.351129374 2852.0
31.364259656 3100.0
31.377389939 3044.0
31.390520222 3005.0
31.403650504 3098.0
31.416780787 3095.0
31.429911070 3140.0
31.443041352 3055.0
31.456171635 3052.0
31.469301918 3042.0
31.482432200 3119.0
31.495562483 3020.0
31.508692766 3151.0
31.521823048 3053.0
31.534953331 3018.0
31.548083614 3099.0
31.561213897 3183.0
31.574344179 3123.0
31.587474462 3182.0
31.600604745 3214.0
31.613735027 3038.0
31.626865310 2993.0
31.639995593 2901.0
31.653125875 2992.0
31.666256158 2891.0
31.679386441 2866.0
31.692516723 2891.0
31.705647006 2848.0
31.718777289 2909.0
31.731907571 2987.0
31.745037854 3041.0
31.758168137 2910.0
31.771298419 3076.0
31.784428702 3099.0
31.797558985 3124.0
31.810689267 3114.0
31.823819550 3269.0
31.836949833 3289.0
31.850080115 3398.0
31.863210398 3574.0
31.876340681 3534.0
31.889470963 3773.0
31.902601246 3686.0
31.915731529 3631.0
31.928861812 3630.0
31.941992094 3499.0
31.955122377 3203.0
31.968252660 3163.0
31.981382942 2951.0
31.994513225 2980.0
32.007643508 3000.0
32.020773790 2799.0
32.033904073 2853.0
32.047034356 2752.0
32.060164638 2689.0
32.073294921 2705.0
32.086425204 2641.0
32.099555486 2711.0
32.112685769 2600.0
32.125816052 2652.0
32.138946334 2711.0
32.152076617 2647.0
32.165206900 2785.0
32.178337182 2669.0
32.191467465 2616.0
32.204597748 2572.0
32.217728030 2556.0
32.230858313 2481.0
32.243988596 2603.0
32.257118878 2591.0
32.270249161 2549.0
32.283379444 2789.0
32.296509726 2743.0
32.309640009 2602.0
32.322770292 2700.0
32.335900575 2572.0
32.349030857 2747.0
32.362161140 2683.0
32.375291423 2642.0
32.388421705 2693.0
32.401551988 2711.0
32.414682271 2693.0
32.427812553 2736.0
32.440942836 2664.0
32.454073119 2620.0
32.467203401 2668.0
32.480333684 2634.0
32.493463967 2641.0
32.506594249 2458.0
32.519724532 2605.0
32.532854815 2540.0
32.545985097 2609.0
32.559115380 2511.0
32.572245663 2593.0
32.585375945 2663.0
32.598506228 2561.0
32.611636511 2554.0
32.624766793 2524.0
32.637897076 2589.0
32.651027359 2588.0
32.664157641 2591.0
32.677287924 2619.0
32.690418207 2486.0
32.703548490 2566.0
32.716678772 2554.0
32.729809055 2532.0
32.742939338 2418.0
32.756069620 2557.0
32.769199903 2548.0
32.782330186 2581.0
32.795460468 2518.0
32.808590751 2509.0
32.821721034 2533.0
32.834851316 2573.0
32.847981599 2445.0
32.861111882 2512.0
32.874242164 2441.0
32.887372447 2463.0
32.900502730 2547.0
32.913633012 2550.0
32.926763295 2562.0
32.939893578 2513.0
32.953023860 2388.0
32.966154143 2554.0
32.979284426 2539.0
32.992414708 2487.0
33.005544991 2587.0
33.018675274 2560.0
33.031805556 2470.0
33.044935839 2391.0
33.058066122 2528.0
33.071196404 2463.0
33.084326687 2438.0
33.097456970 2512.0
33.110587253 2387.0
33.123717535 2406.0
33.136847818 2433.0
33.149978101 2514.0
33.163108383 2434.0
33.176238666 2413.0
33.189368949 2431.0
33.202499231 2425.0
33.215629514 2464.0
33.228759797 2541.0
33.241890079 2443.0
33.255020362 2503.0
33.268150645 2436.0
33.281280927 2377.0
33.294411210 2400.0
33.307541493 2523.0
33.320671775 2435.0
33.333802058 2456.0
33.346932341 2369.0
33.360062623 2424.0
33.373192906 2404.0
33.386323189 2558.0
33.399453471 2485.0
33.412583754 2384.0
33.425714037 2433.0
33.438844319 2444.0
33.451974602 2448.0
33.465104885 2374.0
33.478235167 2485.0
33.491365450 2444.0
33.504495733 2530.0
33.517626016 2429.0
33.530756298 2463.0
33.543886581 2526.0
33.557016864 2373.0
33.570147146 2420.0
33.583277429 2517.0
33.596407712 2515.0
33.609537994 2415.0
33.622668277 2368.0
33.635798560 2426.0
33.648928842 2409.0
33.662059125 2378.0
33.675189408 2392.0
33.688319690 2377.0
33.701449973 2417.0
33.714580256 2409.0
33.727710538 2360.0
33.740840821 2446.0
33.753971104 2435.0
33.767101386 2476.0
33.780231669 2457.0
33.793361952 2450.0
33.806492234 2479.0
33.819622517 2508.0
33.832752800 2363.0
33.845883082 2393.0
33.859013365 2379.0
33.872143648 2488.0
33.885273931 2405.0
33.898404213 2464.0
33.911534496 2427.0
33.924664779 2344.0
33.937795061 2412.0
33.950925344 2430.0
33.964055627 2533.0
33.977185909 2437.0
33.990316192 2336.0
34.003446475 2312.0
34.016576757 2357.0
34.029707040 2360.0
34.042837323 2400.0
34.055967605 2420.0
34.069097888 2472.0
34.082228171 2430.0
34.095358453 2341.0
34.108488736 2410.0
34.121619019 2509.0
34.134749301 2447.0
34.147879584 2436.0
34.161009867 2456.0
34.174140149 2498.0
34.187270432 2379.0
34.200400715 2485.0
34.213530997 2300.0
34.226661280 2506.0
34.239791563 2447.0
34.252921845 2412.0
34.266052128 2507.0
34.279182411 2529.0
34.292312694 2436.0
34.305442976 2542.0
34.318573259 2632.0
34.331703542 2564.0
34.344833824 2716.0
34.357964107 2771.0
34.371094390 2761.0
34.384224672 2773.0
34.397354955 2816.0
34.410485238 3041.0
34.423615520 3044.0
34.436745803 3245.0
34.449876086 3307.0
34.463006368 3354.0
34.476136651 3482.0
34.489266934 3530.0
34.502397216 3770.0
34.515527499 3904.0
34.528657782 4263.0
34.541788064 4211.0
34.554918347 4549.0
34.568048630 5021.0
34.581178912 5234.0
34.594309195 5961.0
34.607439478 6470.0
34.620569760 7467.0
34.633700043 8313.0
34.646830326 9319.0
34.659960609 10278.0
34.673090891 11576.0
34.686221174 13151.0
34.699351457 14392.0
34.712481739 15775.0
34.725612022 16993.0
34.738742305 18059.0
34.751872587 18503.0
34.765002870 18144.0
34.778133153 16792.0
34.791263435 14978.0
34.804393718 13104.0
34.817524001 10630.0
34.830654283 8611.0
34.843784566 7056.0
34.856914849 5964.0
34.870045131 5245.0
34.883175414 4665.0
34.896305697 4158.0
34.909435979 3856.0
34.922566262 3729.0
34.935696545 3487.0
34.948826827 3484.0
34.961957110 3435.0
34.975087393 3257.0
34.988217675 3194.0
35.001347958 3096.0
35.014478241 3016.0
35.027608523 2906.0
35.040738806 2770.0
35.053869089 2904.0
35.066999372 2757.0
35.080129654 2777.0
35.093259937 2852.0
35.106390220 2844.0
35.119520502 2764.0
35.132650785 2787.0
35.145781068 2748.0
35.158911350 2762.0
35.172041633 2649.0
35.185171916 2701.0
35.198302198 2659.0
35.211432481 2678.0
35.224562764 2613.0
35.237693046 2730.0
35.250823329 2691.0
35.263953612 2647.0
35.277083894 2651.0
35.290214177 2752.0
35.303344460 2589.0
35.316474742 2640.0
35.329605025 2691.0
35.342735308 2675.0
35.355865590 2648.0
35.368995873 2656.0
35.382126156 2601.0
35.395256438 2619.0
35.408386721 2653.0
35.421517004 2512.0
35.434647287 2623.0
35.447777569 2625.0
35.460907852 2567.0
35.474038135 2558.0
35.487168417 2605.0
35.500298700 2600.0
35.513428983 2667.0
35.526559265 2599.0
35.539689548 2466.0
35.552819831 2564.0
35.565950113 2518.0
35.579080396 2594.0
35.592210679 2551.0
35.605340961 2633.0
35.618471244 2648.0
35.631601527 2603.0
35.644731809 2595.0
35.657862092 2697.0
35.670992375 2666.0
35.684122657 2675.0
35.697252940 2662.0
35.710383223 2553.0
35.723513505 2653.0
35.736643788 2702.0
35.749774071 2953.0
35.762904353 2788.0
35.776034636 2911.0
35.789164919 2893.0
35.802295201 2908.0
35.815425484 2872.0
35.828555767 2999.0
35.841686050 3107.0
35.854816332 3008.0
35.867946615 3176.0
35.881076898 3141.0
35.894207180 3242.0
35.907337463 3293.0
35.920467746 3390.0
35.933598028 3420.0
35.946728311 3416.0
35.959858594 3348.0
35.972988876 3126.0
35.986119159 2990.0
35.999249442 2700.0
36.012379724 2641.0
36.025510007 2771.0
36.038640290 2628.0
36.051770572 2609.0
36.064900855 2571.0
36.078031138 2518.0
36.091161420 2422.0
36.104291703 2565.0
36.117421986 2492.0
36.130552268 2415.0
36.143682551 2530.0
36.156812834 2436.0
36.169943116 2493.0
36.183073399 2465.0
36.196203682 2521.0
36.209333964 2531.0
36.222464247 2488.0
36.235594530 2408.0
36.248724813 2504.0
36.261855095 2428.0
36.274985378 2522.0
36.288115661 2484.0
36.301245943 2547.0
36.314376226 2492.0
36.327506509 2531.0
36.340636791 2549.0
36.353767074 2486.0
36.366897357 2486.0
36.380027639 2624.0
36.393157922 2583.0
36.406288205 2612.0
36.419418487 2610.0
36.432548770 2674.0
36.445679053 2645.0
36.458809335 2743.0
36.471939618 2761.0
36.485069901 2680.0
36.498200183 2708.0
36.511330466 2626.0
36.524460749 2505.0
36.537591031 2655.0
36.550721314 2503.0
36.563851597 2580.0
36.576981879 2414.0
36.590112162 2461.0
36.603242445 2427.0
36.616372728 2448.0
36.629503010 2479.0
36.642633293 2404.0
36.655763576 2440.0
36.668893858 2544.0
36.682024141 2529.0
36.695154424 2553.0
36.708284706 2570.0
36.721414989 2570.0
36.734545272 2648.0
36.747675554 2724.0
36.760805837 2748.0
36.773936120 2825.0
36.787066402 3189.0
36.800196685 3084.0
36.813326968 3047.0
36.826457250 3336.0
36.839587533 3416.0
36.852717816 3705.0
36.865848098 3793.0
36.878978381 3883.0
36.892108664 4131.0
36.905238946 4395.0
36.918369229 4542.0
36.931499512 4756.0
36.944629794 4847.0
36.957760077 4767.0
36.970890360 4894.0
36.984020642 4740.0
36.997150925 4890.0
37.010281208 4572.0
37.023411491 4635.0
37.036541773 4628.0
37.049672056 4918.0
37.062802339 4979.0
37.075932621 4771.0
37.089062904 4126.0
37.102193187 3754.0
37.115323469 3331.0
37.128453752 3017.0
37.141584035 2918.0
37.154714317 2871.0
37.167844600 2825.0
37.180974883 2744.0
37.194105165 2727.0
37.207235448 2787.0
37.220365731 2535.0
37.233496013 2706.0
37.246626296 2569.0
37.259756579 2558.0
37.272886861 2517.0
37.286017144 2401.0
37.299147427 2475.0
37.312277709 2370.0
37.325407992 2436.0
37.338538275 2420.0
37.351668557 2392.0
37.364798840 2337.0
37.377929123 2316.0
37.391059406 2282.0
37.404189688 2328.0
37.417319971 2396.0
37.430450254 2400.0
37.443580536 2404.0
37.456710819 2347.0
37.469841102 2320.0
37.482971384 2400.0
37.496101667 2379.0
37.509231950 2474.0
37.522362232 2446.0
37.535492515 2496.0
37.548622798 2379.0
37.561753080 2558.0
37.574883363 2509.0
37.588013646 2452.0
37.601143928 2539.0
37.614274211 2432.0
37.627404494 2477.0
37.640534776 2466.0
37.653665059 2564.0
37.666795342 2481.0
37.679925624 2415.0
37.693055907 2444.0
37.706186190 2491.0
37.719316472 2360.0
37.732446755 2415.0
37.745577038 2310.0
37.758707320 2307.0
37.771837603 2442.0
37.784967886 2248.0
37.798098169 2351.0
37.811228451 2368.0
37.824358734 2340.0
37.837489017 2343.0
37.850619299 2272.0
37.863749582 2412.0
37.876879865 2221.0
37.890010147 2274.0
37.903140430 2353.0
37.916270713 2286.0
37.929400995 2256.0
37.942531278 2276.0
37.955661561 2322.0
37.968791843 2278.0
37.981922126 2348.0
37.995052409 2342.0
38.008182691 2268.0
38.021312974 2344.0
38.034443257 2346.0
38.047573539 2313.0
38.060703822 2321.0
38.073834105 2441.0
38.086964387 2457.0
38.100094670 2445.0
38.113224953 2357.0
38.126355235 2499.0
38.139485518 2377.0
38.152615801 2500.0
38.165746083 2536.0
38.178876366 2593.0
38.192006649 2589.0
38.205136932 2718.0
38.218267214 2719.0
38.231397497 2788.0
38.244527780 3021.0
38.257658062 3078.0
38.270788345 3302.0
38.283918628 3443.0
38.297048910 3623.0
38.310179193 3860.0
38.323309476 4201.0
38.336439758 4590.0
38.349570041 4844.0
38.362700324 5311.0
38.375830606 5867.0
38.388960889 6498.0
38.402091172 7160.0
38.415221454 8003.0
38.428351737 9132.0
38.441482020 10417.0
38.454612302 12134.0
38.467742585 14152.0
38.480872868 16590.0
38.494003150 19338.0
38.507133433 22386.0
38.520263716 26983.0
38.533393998 31340.0
38.546524281 36727.0
38.559654564 42200.0
38.572784847 48722.0
38.585915129 55217.0
38.599045412 60423.0
38.612175695 63397.0
38.625305977 63613.0
38.638436260 61504.0
38.651566543 57211.0
38.664696825 51311.0
38.677827108 46118.0
38.690957391 42631.0
38.704087673 39272.0
38.717217956 36700.0
38.730348239 33043.0
38.743478521 29058.0
38.756608804 24172.0
38.769739087 19580.0
38.782869369 15297.0
38.795999652 12181.0
38.809129935 9736.0
38.822260217 7845.0
38.835390500 6841.0
38.848520783 5913.0
38.861651065 5356.0
38.874781348 4684.0
38.887911631 4254.0
38.901041913 4009.0
38.914172196 3700.0
38.927302479 3448.0
38.940432761 3282.0
38.953563044 3087.0
38.966693327 2994.0
38.979823610 2950.0
38.992953892 2815.0
39.006084175 2815.0
39.019214458 2639.0
39.032344740 2659.0
39.045475023 2607.0
39.058605306 2525.0
39.071735588 2480.0
39.084865871 2523.0
39.097996154 2569.0
39.111126436 2360.0
39.124256719 2370.0
39.137387002 2384.0
39.150517284 2340.0
39.163647567 2370.0
39.176777850 2360.0
39.189908132 2194.0
39.203038415 2309.0
39.216168698 2276.0
39.229298980 2268.0
39.242429263 2154.0
39.255559546 2275.0
39.268689828 2172.0
39.281820111 2211.0
39.294950394 2189.0
39.308080676 2181.0
39.321210959 2285.0
39.334341242 2068.0
39.347471525 2154.0
39.360601807 2152.0
39.373732090 2177.0
39.386862373 2116.0
39.399992655 2124.0
39.413122938 2184.0
39.426253221 2149.0
39.439383503 2131.0
39.452513786 2031.0
39.465644069 2102.0
39.478774351 2107.0
39.491904634 2146.0
39.505034917 2057.0
39.518165199 2073.0
39.531295482 2169.0
39.544425765 2056.0
39.557556047 2171.0
39.570686330 2184.0
39.583816613 2139.0
39.596946895 2137.0
39.610077178 2152.0
39.623207461 2164.0
39.636337743 2087.0
39.649468026 2117.0
39.662598309 2170.0
39.675728591 2157.0
39.688858874 2191.0
39.701989157 2117.0
39.715119439 2135.0
39.728249722 2107.0
39.741380005 2194.0
39.754510288 2140.0
39.767640570 2197.0
39.780770853 2243.0
39.793901136 2093.0
39.807031418 2218.0
39.820161701 2235.0
39.833291984 2307.0
39.846422266 2327.0
39.859552549 2300.0
39.872682832 2430.0
39.885813114 2520.0
39.898943397 2456.0
39.912073680 2599.0
39.925203962 2658.0
39.938334245 2718.0
39.951464528 2844.0
39.964594810 2944.0
39.977725093 2992.0
39.990855376 3250.0
40.003985658 3388.0
40.017115941 3614.0
40.030246224 3903.0
40.043376506 4261.0
40.056506789 4309.0
40.069637072 4448.0
40.082767354 4624.0
40.095897637 4669.0
40.109027920 4900.0
40.122158203 5199.0
40.135288485 5817.0
40.148418768 6117.0
40.161549051 6654.0
40.174679333 7265.0
40.187809616 8007.0
40.200939899 8670.0
40.214070181 9756.0
40.227200464 10885.0
40.240330747 12112.0
40.253461029 13783.0
40.266591312 15611.0
40.279721595 17660.0
40.292851877 19955.0
40.305982160 22559.0
40.319112443 24993.0
40.332242725 28111.0
40.345373008 31288.0
40.358503291 35253.0
40.371633573 39582.0
40.384763856 43473.0
40.397894139 43783.0
40.411024421 38742.0
40.424154704 30101.0
40.437284987 22488.0
40.450415269 16875.0
40.463545552 12733.0
40.476675835 10131.0
40.489806117 8388.0
40.502936400 7163.0
40.516066683 6473.0
40.529196966 5833.0
40.542327248 5278.0
40.555457531 4991.0
40.568587814 4655.0
40.581718096 4560.0
40.594848379 4134.0
40.607978662 4017.0
40.621108944 3720.0
40.634239227 3617.0
40.647369510 3481.0
40.660499792 3355.0
40.673630075 3223.0
40.686760358 3037.0
40.699890640 3106.0
40.713020923 3029.0
40.726151206 2809.0
40.739281488 2870.0
40.752411771 2859.0
40.765542054 2818.0
40.778672336 2768.0
40.791802619 2837.0
40.804932902 2761.0
40.818063184 2753.0
40.831193467 2650.0
40.844323750 2773.0
40.857454032 2678.0
40.870584315 2611.0
40.883714598 2645.0
40.896844880 2698.0
40.909975163 2714.0
40.923105446 2670.0
40.936235729 2623.0
40.949366011 2573.0
40.962496294 2619.0
40.975626577 2648.0
40.988756859 2518.0
41.001887142 2450.0
41.015017425 2574.0
41.028147707 2563.0
41.041277990 2607.0
41.054408273 2605.0
41.067538555 2556.0
41.080668838 2500.0
41.093799121 2568.0
41.106929403 2553.0
41.120059686 2575.0
41.133189969 2517.0
41.146320251 2462.0
41.159450534 2453.0
41.172580817 2539.0
41.185711099 2590.0
41.198841382 2467.0
41.211971665 2544.0
41.225101947 2464.0
41.238232230 2424.0
41.251362513 2448.0
41.264492795 2414.0
41.277623078 2513.0
41.290753361 2371.0
41.303883644 2447.0
41.317013926 2412.0
41.330144209 2366.0
41.343274492 2391.0
41.356404774 2318.0
41.369535057 2433.0
41.382665340 2454.0
41.395795622 2308.0
41.408925905 2393.0
41.422056188 2386.0
41.435186470 2424.0
41.448316753 2331.0
41.461447036 2328.0
41.474577318 2334.0
41.487707601 2323.0
41.500837884 2351.0
41.513968166 2341.0
41.527098449 2300.0
41.540228732 2331.0
41.553359014 2228.0
41.566489297 2323.0
41.579619580 2225.0
41.592749862 2258.0
41.605880145 2254.0
41.619010428 2247.0
41.632140710 2254.0
41.645270993 2293.0
41.658401276 2240.0
41.671531558 2357.0
41.684661841 2322.0
41.697792124 2375.0
41.710922407 2257.0
41.724052689 2201.0
41.737182972 2435.0
41.750313255 2297.0
41.763443537 2347.0
41.776573820 2401.0
41.789704103 2339.0
41.802834385 2217.0
41.815964668 2258.0
41.829094951 2304.0
41.842225233 2296.0
41.855355516 2384.0
41.868485799 2343.0
41.881616081 2395.0
41.894746364 2301.0
41.907876647 2312.0
41.921006929 2326.0
41.934137212 2336.0
41.947267495 2368.0
41.960397777 2493.0
41.973528060 2363.0
41.986658343 2430.0
41.999788625 2442.0
42.012918908 2515.0
42.026049191 2418.0
42.039179473 2326.0
42.052309756 2360.0
42.065440039 2258.0
42.078570322 2286.0
42.091700604 2318.0
42.104830887 2299.0
42.117961170 2333.0
42.131091452 2227.0
42.144221735 2165.0
42.157352018 2345.0
42.170482300 2277.0
42.183612583 2118.0
42.196742866 2182.0
42.209873148 2179.0
42.223003431 2285.0
42.236133714 2193.0
42.249263996 2217.0
42.262394279 2133.0
42.275524562 2153.0
42.288654844 2145.0
42.301785127 2278.0
42.314915410 2247.0
42.328045692 2192.0
42.341175975 2193.0
42.354306258 2148.0
42.367436540 2194.0
42.380566823 2239.0
42.393697106 2149.0
42.406827388 2180.0
42.419957671 2138.0
42.433087954 2179.0
42.446218236 2146.0
42.459348519 2118.0
42.472478802 2068.0
42.485609085 2149.0
42.498739367 2213.0
42.511869650 2177.0
42.524999933 2094.0
42.538130215 2182.0
42.551260498 2155.0
42.564390781 2113.0
42.577521063 2107.0
42.590651346 2115.0
42.603781629 2132.0
42.616911911 2237.0
42.630042194 2336.0
42.643172477 2271.0
42.656302759 2314.0
42.669433042 2348.0
42.682563325 2413.0
42.695693607 2362.0
42.708823890 2390.0
42.721954173 2523.0
42.735084455 2501.0
42.748214738 2593.0
42.761345021 2689.0
42.774475303 2789.0
42.787605586 2883.0
42.800735869 2917.0
42.813866151 3096.0
42.826996434 3261.0
42.840126717 3445.0
42.853256999 3598.0
42.866387282 3781.0
42.879517565 4057.0
42.892647848 4252.0
42.905778130 4571.0
42.918908413 4967.0
42.932038696 5476.0
42.945168978 5644.0
42.958299261 5871.0
42.971429544 5462.0
42.984559826 4865.0
42.997690109 4192.0
43.010820392 3680.0
43.023950674 3367.0
43.037080957 3049.0
43.050211240 2814.0
43.063341522 2705.0
43.076471805 2629.0
43.089602088 2415.0
43.102732370 2538.0
43.115862653 2457.0
43.128992936 2436.0
43.142123218 2346.0
43.155253501 2458.0
43.168383784 2327.0
43.181514066 2332.0
43.194644349 2297.0
43.207774632 2297.0
43.220904914 2403.0
43.234035197 2327.0
43.247165480 2438.0
43.260295763 2486.0
43.273426045 2486.0
43.286556328 2563.0
43.299686611 2537.0
43.312816893 2472.0
43.325947176 2417.0
43.339077459 2225.0
43.352207741 2166.0
43.365338024 2231.0
43.378468307 2120.0
43.391598589 2112.0
43.404728872 2287.0
43.417859155 2160.0
43.430989437 2171.0
43.444119720 2107.0
43.457250003 2052.0
43.470380285 2087.0
43.483510568 2128.0
43.496640851 2128.0
43.509771133 2092.0
43.522901416 2049.0
43.536031699 2091.0
43.549161981 2110.0
43.562292264 2066.0
43.575422547 2093.0
43.588552829 2068.0
43.601683112 2010.0
43.614813395 2043.0
43.627943677 2174.0
43.641073960 2055.0
43.654204243 2067.0
43.667334526 2120.0
43.680464808 2225.0
43.693595091 2138.0
43.706725374 2051.0
43.719855656 2076.0
43.732985939 2129.0
43.746116222 2114.0
43.759246504 2115.0
43.772376787 2174.0
43.785507070 2138.0
43.798637352 2151.0
43.811767635 2121.0
43.824897918 2087.0
43.838028200 2162.0
43.851158483 2168.0
43.864288766 2111.0
43.877419048 2245.0
43.890549331 2148.0
43.903679614 2224.0
43.916809896 2177.0
43.929940179 2190.0
43.943070462 2176.0
43.956200744 2272.0
43.969331027 2244.0
43.982461310 2186.0
43.995591592 2236.0
44.008721875 2196.0
44.021852158 2241.0
44.034982441 2135.0
44.048112723 2110.0
44.061243006 2191.0
44.074373289 2208.0
44.087503571 2255.0
44.100633854 2192.0
44.113764137 2221.0
44.126894419 2226.0
44.140024702 2227.0
44.153154985 2179.0
44.166285267 2257.0
44.179415550 2355.0
44.192545833 2228.0
44.205676115 2256.0
44.218806398 2396.0
44.231936681 2352.0
44.245066963 2243.0
44.258197246 2341.0
44.271327529 2388.0
44.284457811 2357.0
44.297588094 2439.0
44.310718377 2480.0
44.323848659 2485.0
44.336978942 2523.0
44.350109225 2552.0
44.363239507 2558.0
44.376369790 2636.0
44.389500073 2659.0
44.402630355 2759.0
44.415760638 2811.0
44.428890921 2977.0
44.442021204 2884.0
44.455151486 3140.0
44.468281769 3231.0
44.481412052 3303.0
44.494542334 3491.0
44.507672617 3642.0
44.520802900 3944.0
44.533933182 4104.0
44.547063465 4465.0
44.560193748 4786.0
44.573324030 5205.0
44.586454313 5687.0
44.599584596 6249.0
44.612714878 6842.0
44.625845161 7591.0
44.638975444 8496.0
44.652105726 9314.0
44.665236009 10164.0
44.678366292 11574.0
44.691496574 12972.0
44.704626857 14697.0
44.717757140 16493.0
44.730887422 18526.0
44.744017705 21017.0
44.757147988 23970.0
44.770278270 27665.0
44.783408553 32261.0
44.796538836 37072.0
44.809669119 42862.0
44.822799401 49744.0
44.835929684 58456.0
44.849059967 68613.0
44.862190249 80457.0
44.875320532 94593.0
44.888450815 112733.0
44.901581097 136155.0
44.914711380 163217.0
44.927841663 183906.0
44.940971945 172363.0
44.954102228 138033.0
44.967232511 107163.0
44.980362793 87314.0
44.993493076 78919.0
45.006623359 76576.0
45.019753641 80718.0
45.032883924 88911.0
45.046014207 94023.0
45.059144489 86079.0
45.072274772 66579.0
45.085405055 47634.0
45.098535337 33919.0
45.111665620 25202.0
45.124795903 19469.0
45.137926185 15531.0
45.151056468 13096.0
45.164186751 11335.0
45.177317033 9688.0
45.190447316 8441.0
45.203577599 7548.0
45.216707882 6822.0
45.229838164 6342.0
45.242968447 5925.0
45.256098730 5552.0
45.269229012 4998.0
45.282359295 4604.0
45.295489578 4270.0
45.308619860 4152.0
45.321750143 3722.0
45.334880426 3563.0
45.348010708 3436.0
45.361140991 3428.0
45.374271274 3174.0
45.387401556 3064.0
45.400531839 3041.0
45.413662122 2925.0
45.426792404 2906.0
45.439922687 2645.0
45.453052970 2688.0
45.466183252 2589.0
45.479313535 2658.0
45.492443818 2535.0
45.505574100 2380.0
45.518704383 2491.0
45.531834666 2484.0
45.544964948 2458.0
45.558095231 2345.0
45.571225514 2296.0
45.584355796 2313.0
45.597486079 2264.0
45.610616362 2248.0
45.623746645 2249.0
45.636876927 2231.0
45.650007210 2197.0
45.663137493 2194.0
45.676267775 2160.0
45.689398058 2080.0
45.702528341 2100.0
45.715658623 2094.0
45.728788906 2134.0
45.741919189 2155.0
45.755049471 2118.0
45.768179754 1989.0
45.781310037 2009.0
45.794440319 2062.0
45.807570602 2061.0
45.820700885 1963.0
45.833831167 2025.0
45.846961450 2001.0
45.860091733 2036.0
45.873222015 2002.0
45.886352298 1995.0
45.899482581 2000.0
45.912612863 1968.0
45.925743146 1983.0
45.938873429 1859.0
45.952003711 1959.0
45.965133994 1856.0
45.978264277 1948.0
45.991394560 1950.0
46.004524842 1882.0
46.017655125 1905.0
46.030785408 1857.0
46.043915690 1934.0
46.057045973 1819.0
46.070176256 1810.0
46.083306538 1923.0
46.096436821 1872.0
46.109567104 1931.0
46.122697386 1885.0
46.135827669 1888.0
46.148957952 1901.0
46.162088234 1888.0
46.175218517 1863.0
46.188348800 1842.0
46.201479082 1959.0
46.214609365 1805.0
46.227739648 1846.0
46.240869930 1800.0
46.254000213 1852.0
46.267130496 1868.0
46.280260778 1758.0
46.293391061 1813.0
46.306521344 1773.0
46.319651626 1737.0
46.332781909 1796.0
46.345912192 1808.0
46.359042474 1863.0
46.372172757 1768.0
46.385303040 1824.0
46.398433323 1787.0
46.411563605 1733.0
46.424693888 1712.0
46.437824171 1819.0
46.450954453 1781.0
46.464084736 1829.0
46.477215019 1740.0
46.490345301 1722.0
46.503475584 1828.0
46.516605867 1720.0
46.529736149 1706.0
46.542866432 1758.0
46.555996715 1848.0
46.569126997 1779.0
46.582257280 1805.0
46.595387563 1829.0
46.608517845 1808.0
46.621648128 1812.0
46.634778411 1789.0
46.647908693 1719.0
46.661038976 1751.0
46.674169259 1739.0
46.687299541 1709.0
46.700429824 1778.0
46.713560107 1691.0
46.726690389 1721.0
46.739820672 1777.0
46.752950955 1755.0
46.766081238 1765.0
46.779211520 1742.0
46.792341803 1668.0
46.805472086 1753.0
46.818602368 1723.0
46.831732651 1705.0
46.844862934 1644.0
46.857993216 1678.0
46.871123499 1711.0
46.884253782 1722.0
46.897384064 1584.0
46.910514347 1709.0
46.923644630 1748.0
46.936774912 1706.0
46.949905195 1713.0
46.963035478 1695.0
46.976165760 1671.0
46.989296043 1677.0
47.002426326 1672.0
47.015556608 1753.0
47.028686891 1683.0
47.041817174 1633.0
47.054947456 1636.0
47.068077739 1595.0
47.081208022 1623.0
47.094338304 1705.0
47.107468587 1704.0
47.120598870 1688.0
47.133729152 1715.0
47.146859435 1619.0
47.159989718 1631.0
47.173120001 1657.0
47.186250283 1795.0
47.199380566 1559.0
47.212510849 1607.0
47.225641131 1694.0
47.238771414 1660.0
47.251901697 1633.0
47.265031979 1594.0
47.278162262 1656.0
47.291292545 1641.0
47.304422827 1682.0
47.317553110 1589.0
47.330683393 1616.0
47.343813675 1658.0
47.356943958 1611.0
47.370074241 1598.0
47.383204523 1721.0
47.396334806 1575.0
47.409465089 1681.0
47.422595371 1594.0
47.435725654 1665.0
47.448855937 1610.0
47.461986219 1582.0
47.475116502 1603.0
47.488246785 1611.0
47.501377067 1546.0
47.514507350 1595.0
47.527637633 1729.0
47.540767916 1698.0
47.553898198 1590.0
47.567028481 1614.0
47.580158764 1670.0
47.593289046 1604.0
47.606419329 1667.0
47.619549612 1673.0
47.632679894 1550.0
47.645810177 1588.0
47.658940460 1606.0
47.672070742 1595.0
47.685201025 1587.0
47.698331308 1513.0
47.711461590 1593.0
47.724591873 1608.0
47.737722156 1580.0
47.750852438 1495.0
47.763982721 1548.0
47.777113004 1596.0
47.790243286 1625.0
47.803373569 1598.0
47.816503852 1549.0
47.829634134 1657.0
47.842764417 1518.0
47.855894700 1586.0
47.869024982 1616.0
47.882155265 1596.0
47.895285548 1608.0
47.908415830 1642.0
47.921546113 1617.0
47.934676396 1643.0
47.947806679 1573.0
47.960936961 1594.0
47.974067244 1649.0
47.987197527 1644.0
48.000327809 1569.0
48.013458092 1626.0
48.026588375 1571.0
48.039718657 1559.0
48.052848940 1580.0
48.065979223 1572.0
48.079109505 1521.0
48.092239788 1567.0
48.105370071 1583.0
48.118500353 1532.0
48.131630636 1536.0
48.144760919 1622.0
48.157891201 1548.0
48.171021484 1609.0
48.184151767 1623.0
48.197282049 1541.0
48.210412332 1533.0
48.223542615 1542.0
48.236672897 1634.0
48.249803180 1627.0
48.262933463 1549.0
48.276063745 1619.0
48.289194028 1530.0
48.302324311 1639.0
48.315454593 1596.0
48.328584876 1533.0
48.341715159 1593.0
48.354845442 1619.0
48.367975724 1603.0
48.381106007 1655.0
48.394236290 1631.0
48.407366572 1589.0
48.420496855 1592.0
48.433627138 1691.0
48.446757420 1676.0
48.459887703 1679.0
48.473017986 1698.0
48.486148268 1637.0
48.499278551 1689.0
48.512408834 1718.0
48.525539116 1704.0
48.538669399 1769.0
48.551799682 1714.0
48.564929964 1718.0
48.578060247 1869.0
48.591190530 1831.0
48.604320812 1643.0
48.617451095 1653.0
48.630581378 1697.0
48.643711660 1734.0
48.656841943 1716.0
48.669972226 1737.0
48.683102508 1752.0
48.696232791 1822.0
48.709363074 1760.0
48.722493357 1772.0
48.735623639 1765.0
48.748753922 1847.0
48.761884205 1723.0
48.775014487 1840.0
48.788144770 1905.0
48.801275053 1904.0
48.814405335 1943.0
48.827535618 1947.0
48.840665901 1892.0
48.853796183 1823.0
48.866926466 1917.0
48.880056749 1908.0
48.893187031 1927.0
48.906317314 1903.0
48.919447597 1766.0
48.932577879 1841.0
48.945708162 1833.0
48.958838445 1779.0
48.971968727 1718.0
48.985099010 1693.0
48.998229293 1714.0
49.011359575 1729.0
49.024489858 1665.0
49.037620141 1712.0
49.050750423 1620.0
49.063880706 1544.0
49.077010989 1542.0
49.090141271 1587.0
49.103271554 1567.0
49.116401837 1544.0
49.129532120 1504.0
49.142662402 1565.0
49.155792685 1580.0
49.168922968 1592.0
49.182053250 1588.0
49.195183533 1580.0
49.208313816 1561.0
49.221444098 1566.0
49.234574381 1587.0
49.247704664 1590.0
49.260834946 1561.0
49.273965229 1547.0
49.287095512 1582.0
49.300225794 1436.0
49.313356077 1529.0
49.326486360 1513.0
49.339616642 1555.0
49.352746925 1423.0
49.365877208 1438.0
49.379007490 1503.0
49.392137773 1503.0
49.405268056 1525.0
49.418398338 1528.0
49.431528621 1515.0
49.444658904 1463.0
49.457789186 1499.0
49.470919469 1576.0
49.484049752 1444.0
49.497180035 1471.0
49.510310317 1489.0
49.523440600 1422.0
49.536570883 1468.0
49.549701165 1505.0
49.562831448 1449.0
49.575961731 1418.0
49.589092013 1483.0
49.602222296 1483.0
49.615352579 1506.0
49.628482861 1394.0
49.641613144 1524.0
49.654743427 1465.0
49.667873709 1451.0
49.681003992 1447.0
49.694134275 1448.0
49.707264557 1426.0
49.720394840 1439.0
49.733525123 1513.0
49.746655405 1450.0
49.759785688 1431.0
49.772915971 1438.0
49.786046253 1463.0
49.799176536 1437.0
49.812306819 1408.0
49.825437101 1450.0
49.838567384 1470.0
49.851697667 1405.0
49.864827949 1446.0
49.877958232 1400.0
49.891088515 1411.0
49.904218798 1422.0
49.917349080 1423.0
49.930479363 1399.0
49.943609646 1438.0
49.956739928 1428.0
49.969870211 1427.0
49.983000494 1309.0
49.996130776 1419.0
50.009261059 1364.0
50.022391342 1402.0
50.035521624 1479.0
50.048651907 1494.0
50.061782190 1455.0
50.074912472 1445.0
50.088042755 1411.0
50.101173038 1436.0
50.114303320 1421.0
50.127433603 1390.0
50.140563886 1391.0
50.153694168 1389.0
50.166824451 1472.0
50.179954734 1331.0
50.193085016 1400.0
50.206215299 1387.0
50.219345582 1462.0
50.232475864 1444.0
50.245606147 1440.0
50.258736430 1386.0
50.271866712 1462.0
50.284996995 1449.0
50.298127278 1380.0
50.311257561 1411.0
50.324387843 1422.0
50.337518126 1373.0
50.350648409 1375.0
50.363778691 1324.0
50.376908974 1384.0
50.390039257 1351.0
50.403169539 1409.0
50.416299822 1429.0
50.429430105 1444.0
50.442560387 1375.0
50.455690670 1392.0
50.468820953 1386.0
50.481951235 1383.0
50.495081518 1364.0
50.508211801 1383.0
50.521342083 1457.0
50.534472366 1387.0
50.547602649 1445.0
50.560732931 1384.0
50.573863214 1445.0
50.586993497 1444.0
50.600123779 1400.0
50.613254062 1376.0
50.626384345 1412.0
50.639514627 1436.0
50.652644910 1475.0
50.665775193 1382.0
50.678905476 1367.0
50.692035758 1374.0
50.705166041 1396.0
50.718296324 1441.0
50.731426606 1384.0
50.744556889 1436.0
50.757687172 1337.0
50.770817454 1385.0
50.783947737 1456.0
50.797078020 1435.0
50.810208302 1345.0
50.823338585 1393.0
50.836468868 1386.0
50.849599150 1393.0
50.862729433 1383.0
50.875859716 1391.0
50.888989998 1342.0
50.902120281 1358.0
50.915250564 1378.0
50.928380846 1334.0
50.941511129 1315.0
50.954641412 1420.0
50.967771694 1366.0
50.980901977 1273.0
50.994032260 1363.0
51.007162542 1352.0
51.020292825 1378.0
51.033423108 1347.0
51.046553390 1315.0
51.059683673 1393.0
51.072813956 1455.0
51.085944239 1395.0
51.099074521 1445.0
51.112204804 1351.0
51.125335087 1377.0
51.138465369 1358.0
51.151595652 1359.0
51.164725935 1356.0
51.177856217 1392.0
51.190986500 1366.0
51.204116783 1405.0
51.217247065 1360.0
51.230377348 1406.0
51.243507631 1326.0
51.256637913 1384.0
51.269768196 1336.0
51.282898479 1324.0
51.296028761 1395.0
51.309159044 1388.0
51.322289327 1409.0
51.335419609 1401.0
51.348549892 1329.0
51.361680175 1332.0
51.374810457 1313.0
51.387940740 1380.0
51.401071023 1417.0
51.414201305 1376.0
51.427331588 1427.0
51.440461871 1343.0
51.453592154 1349.0
51.466722436 1395.0
51.479852719 1366.0
51.492983002 1456.0
51.506113284 1471.0
51.519243567 1516.0
51.532373850 1488.0
51.545504132 1428.0
51.558634415 1482.0
51.571764698 1463.0
51.584894980 1451.0
51.598025263 1476.0
51.611155546 1499.0
51.624285828 1394.0
51.637416111 1422.0
51.650546394 1476.0
51.663676676 1577.0
51.676806959 1557.0
51.689937242 1593.0
51.703067524 1588.0
51.716197807 1533.0
51.729328090 1634.0
51.742458372 1579.0
51.755588655 1601.0
51.768718938 1589.0
51.781849220 1546.0
51.794979503 1500.0
51.808109786 1520.0
51.821240068 1509.0
51.834370351 1500.0
51.847500634 1375.0
51.860630917 1396.0
51.873761199 1423.0
51.886891482 1514.0
51.900021765 1446.0
51.913152047 1359.0
51.926282330 1393.0
51.939412613 1382.0
51.952542895 1318.0
51.965673178 1393.0
51.978803461 1314.0
51.991933743 1297.0
52.005064026 1259.0
52.018194309 1310.0
52.031324591 1302.0
52.044454874 1295.0
52.057585157 1360.0
52.070715439 1273.0
52.083845722 1303.0
52.096976005 1366.0
52.110106287 1374.0
52.123236570 1284.0
52.136366853 1377.0
52.149497135 1426.0
52.162627418 1357.0
52.175757701 1321.0
52.188887983 1390.0
52.202018266 1399.0
52.215148549 1319.0
52.228278832 1395.0
52.241409114 1383.0
52.254539397 1332.0
52.267669680 1368.0
52.280799962 1275.0
52.293930245 1319.0
52.307060528 1323.0
52.320190810 1312.0
52.333321093 1320.0
52.346451376 1360.0
52.359581658 1365.0
52.372711941 1368.0
52.385842224 1375.0
52.398972506 1408.0
52.412102789 1343.0
52.425233072 1307.0
52.438363354 1331.0
52.451493637 1366.0
52.464623920 1363.0
52.477754202 1415.0
52.490884485 1410.0
52.504014768 1379.0
52.517145050 1333.0
52.530275333 1372.0
52.543405616 1370.0
52.556535898 1427.0
52.569666181 1388.0
52.582796464 1427.0
52.595926746 1391.0
52.609057029 1323.0
52.622187312 1351.0
52.635317595 1402.0
52.648447877 1299.0
52.661578160 1295.0
52.674708443 1302.0
52.687838725 1333.0
52.700969008 1364.0
52.714099291 1310.0
52.727229573 1356.0
52.740359856 1294.0
52.753490139 1312.0
52.766620421 1355.0
52.779750704 1257.0
52.792880987 1227.0
52.806011269 1273.0
52.819141552 1340.0
52.832271835 1222.0
52.845402117 1245.0
52.858532400 1374.0
52.871662683 1286.0
52.884792965 1345.0
52.897923248 1372.0
52.911053531 1364.0
52.924183813 1326.0
52.937314096 1294.0
52.950444379 1280.0
52.963574661 1345.0
52.976704944 1365.0
52.989835227 1327.0
53.002965509 1296.0
53.016095792 1286.0
53.029226075 1268.0
53.042356358 1326.0
53.055486640 1379.0
53.068616923 1424.0
53.081747206 1400.0
53.094877488 1407.0
53.108007771 1334.0
53.121138054 1379.0
53.134268336 1420.0
53.147398619 1423.0
53.160528902 1446.0
53.173659184 1422.0
53.186789467 1367.0
53.199919750 1451.0
53.213050032 1474.0
53.226180315 1451.0
53.239310598 1521.0
53.252440880 1498.0
53.265571163 1482.0
53.278701446 1588.0
53.291831728 1600.0
53.304962011 1583.0
53.318092294 1607.0
53.331222576 1703.0
53.344352859 1709.0
53.357483142 1648.0
53.370613424 1785.0
53.383743707 1743.0
53.396873990 1793.0
53.410004273 1826.0
53.423134555 1831.0
53.436264838 1797.0
53.449395121 1751.0
53.462525403 1683.0
53.475655686 1634.0
53.488785969 1613.0
53.501916251 1526.0
53.515046534 1520.0
53.528176817 1501.0
53.541307099 1480.0
53.554437382 1511.0
53.567567665 1500.0
53.580697947 1401.0
53.593828230 1442.0
